# z[m]                Wz_trx/Z_0/L[1/(m^2*s]           Wz_try/Z_0/L[1/(m^2*s]       Wz_l/Z_0/L[1/(ms)]
     0.000149896              -2.56436e+10                -5.13084e+10                               5.48402e+09 
      0.00164886              -4.40309e+10                -8.80981e+10                              3.08826e+09 
      0.00614575              -7.04777e+10                -1.41013e+11                              1.66205e+09 
       0.0136406              -8.11279e+10                 -1.6232e+11                             5.27451e+08 
       0.0241333              -9.03381e+10                 -1.8074e+11                             5.71358e+08 
        0.037624               -9.6882e+10                -1.93811e+11                            3.48729e+08 
       0.0541125              -1.03444e+11                -2.06887e+11                             2.45032e+08 
        0.073599              -1.07972e+11                -2.15843e+11                            2.17847e+08 
       0.0960835              -1.11504e+11                -2.22723e+11                             1.92646e+08 
        0.121566               -1.1281e+11                -2.25029e+11                            1.20101e+08 
        0.150046              -1.13079e+11                -2.25101e+11                            1.34008e+08 
        0.181524              -1.11959e+11                -2.22187e+11                            1.16513e+08 
           0.216              -1.09681e+11                -2.16704e+11                             98771800    
        0.253475              -1.06294e+11                -2.08714e+11                            91948100     
        0.293947              -1.01879e+11                 -1.9835e+11                            74638000     
        0.337416              -9.70041e+10                -1.86733e+11                            63171900     
        0.383884              -9.14627e+10                -1.73453e+11                            58167400     
         0.43335              -8.55103e+10                -1.59044e+11                             60230200      
        0.485814              -7.94539e+10                -1.44162e+11                            55782000     
        0.541275               -7.3296e+10                -1.28872e+11                            48926900     
        0.599735              -6.72112e+10                  -1.136e+11                            38200800     
        0.661192              -6.13079e+10                 -9.8651e+10                            45422000     
        0.725648              -5.56671e+10                 -8.4283e+10                            37732500     
        0.793101              -5.03578e+10                -7.07296e+10                            39549000     
        0.863552              -4.54015e+10                -5.81259e+10                            29243100     
        0.937001              -4.08409e+10                -4.66392e+10                            32454500     
         1.01345              -3.66719e+10                -3.63301e+10                           27728700      
         1.09289              -3.29044e+10                -2.72693e+10                           27623600      
         1.17534              -2.95089e+10                -1.94308e+10                           22771700      
         1.26078              -2.64471e+10                -1.27504e+10                           22002600      
         1.34922              -2.37581e+10                -7.30085e+09                           26537800      
         1.44065              -2.13442e+10                -2.86338e+09                           21132600      
         1.53509              -1.91602e+10                 6.90392e+08                           20354100      
         1.63252              -1.72073e+10                 3.40642e+09                           21960200      
         1.73295              -1.53168e+10                 5.67705e+09                           16742000      
         1.83638              -1.34021e+10                 7.73012e+09                           13426100      
         1.94281              -1.13443e+10                 9.84839e+09                           12248000      
         2.05223              -9.11321e+09                 1.21222e+10                           3748590       
         2.16465              -6.73839e+09                 1.45013e+10                           -1968280      
         2.28007              -4.26588e+09                 1.68845e+10                           -5325720      
         2.39849              -1.86484e+09                  1.8914e+10                           -12617700     
         2.51991               3.57165e+08                  2.0358e+10                           -16814900     
         2.64432               2.23742e+09                 2.08914e+10                           -22860000     
         2.77173               3.73777e+09                 2.04671e+10                           -23934100     
         2.90214               4.78925e+09                 1.90112e+10                           -27926900     
         3.03555               5.42467e+09                 1.66869e+10                           -30075800  
         3.17195               5.64461e+09                 1.36182e+10                           -34703300  
         3.31136               5.53585e+09                 1.01138e+10                           -35254900  
         3.45376               5.14667e+09                 6.40247e+09                           -36866800  
         3.59916                4.5836e+09                 2.81181e+09                           -35680800  
         3.74756               3.88566e+09                -4.95051e+08                           -37316700  
         3.89895               3.13066e+09                -3.31337e+09                           -36670400  
         4.05334               2.33478e+09                -5.59944e+09                           -34837400  
         4.21073               1.55903e+09                -7.25451e+09                           -34593200  
         4.37112               8.17191e+08                -8.30265e+09                           -33258800  
         4.53451               1.37245e+08                -8.76055e+09                           -31739300  
          4.7009              -4.69659e+08                -8.69248e+09                          -29994300   
         4.87028              -9.93694e+08                -8.17385e+09                           -28090200  
         5.04266              -1.40305e+09                -7.24059e+09                           -25668000  
         5.21804              -1.71475e+09                 -6.0279e+09                           -23932600  
         5.39641              -1.92256e+09                -4.62295e+09                           -21754900  
         5.57779              -2.03649e+09                -3.14018e+09                           -18270600  
         5.76216              -2.06685e+09                -1.68461e+09                           -17130700  
         5.94953              -2.02496e+09                -3.47962e+08                           -14541800  
          6.1399              -1.94388e+09                 7.54785e+08                          -12054700   
         6.33327              -1.82474e+09                 1.59645e+09                           -8957920   
         6.52963               -1.6824e+09                 2.14756e+09                           -6582630   
         6.72899              -1.54696e+09                 2.37226e+09                           -4968150   
         6.93135              -1.41111e+09                 2.33015e+09                           -3820860   
         7.13671              -1.28221e+09                 2.06669e+09                           -2501960   
         7.34507              -1.18018e+09                 1.61121e+09                           -1100370   
         7.55642               -1.0907e+09                 1.06374e+09                           1007320    
         7.77077               -1.0143e+09                 4.90842e+08                           1473690    
         7.98812              -9.61787e+08                -7.07373e+07                           2357970    
         8.20847              -9.17426e+08                -5.44311e+08                           2475850    
         8.43181              -8.81042e+08                -9.00064e+08                           3240400    
         8.65816              -8.52884e+08                 -1.1257e+09                           3336330    
          8.8875              -8.26811e+08                -1.21209e+09                          2543860     
         9.11984               -8.0543e+08                -1.18134e+09                           3076870    
         9.35517              -7.77329e+08                -1.03782e+09                           2783850    
         9.59351              -7.52395e+08                -8.34609e+08                           1817480    
         9.83484              -7.29316e+08                -6.04012e+08                           1943420    
         10.0792              -7.02535e+08                -3.67318e+08                           1398140    
         10.3265              -6.78227e+08                -1.63384e+08                           872485     
         10.5768               -6.5087e+08                      534379                           93197.9    
         10.8302              -6.31162e+08                 9.39077e+07                           -559728    
         11.0865              -6.08556e+08                 1.37635e+08                           -515035    
         11.3458              -5.89957e+08                 1.25236e+08                           -1305760   
         11.6081              -5.68991e+08                 8.21651e+07                           -1314350   
         11.8734                -5.541e+08                 7.01896e+06                           -1896400   
         12.1417              -5.40525e+08                 -7.5021e+07                           -1587620   
         12.4131              -5.31781e+08                -1.57406e+08                           -2090550   
         12.6874              -5.20596e+08                -2.15712e+08                           -1922930   
         12.9647              -5.10647e+08                 -2.5198e+08                           -2081060   
          13.245              -4.97551e+08                -2.56713e+08                          -1748500    
         13.5283              -4.88855e+08                -2.48204e+08                           -1749300   
         13.8146              -4.78461e+08                -2.20197e+08                           -2194790   
         14.1039              -4.71635e+08                -1.90498e+08                           -1724710   
         14.3962              -4.60088e+08                -1.49712e+08                           -1658480   
         14.6915              -4.51402e+08                -1.18964e+08                           -1743400   
         14.9898              -4.41641e+08                -9.43422e+07                           -1424200   
         15.2911              -4.33226e+08                -8.23609e+07                           -1271190   
         15.5954              -4.23634e+08                -7.75143e+07                           -1352200   
         15.9026              -4.11662e+08                -7.53136e+07                           -924404    
         16.2129              -4.04225e+08                 -8.6572e+07                           -748443    
         16.5262              -3.94764e+08                -9.49592e+07                           -1018820   
         16.8425              -3.85492e+08                -1.02141e+08                           -504974    
         17.1618              -3.76793e+08                -1.06993e+08                           -507644    
          17.484              -3.68318e+08                -1.07974e+08                          -466862     
         17.8093              -3.61526e+08                -1.08147e+08                           -757199    
         18.1376              -3.52299e+08                -1.00157e+08                           -821811    
         18.4689              -3.44707e+08                 -9.3423e+07                           -692078    
         18.8031               -3.3909e+08                -8.99461e+07                           -476516    
         19.1404              -3.30267e+08                -8.04291e+07                           -379948    
         19.4807              -3.23401e+08                -7.58515e+07                           -425283    
         19.8239              -3.18304e+08                -7.60259e+07                           -789012    
         20.1702              -3.10364e+08                -7.15137e+07                           -675996    
         20.5194                -3.042e+08                -7.11018e+07                           -756610    
         20.8717              -2.99035e+08                 -7.2688e+07                           -542536    
          21.227              -2.92622e+08                -7.13026e+07                          -785279     
         21.5852              -2.87212e+08                -7.11412e+07                           -766020    
         21.9465              -2.81207e+08                -6.89008e+07                           -425703    
         22.3107              -2.77045e+08                -6.95385e+07                           -725580    
          22.678               -2.7216e+08                -6.81206e+07                          -714145     
         23.0482              -2.65687e+08                -6.31595e+07                           -408564    
         23.4214              -2.62285e+08                -6.41937e+07                           -699392    
         23.7977              -2.57136e+08                -6.17294e+07                           -679137    
         24.1769              -2.52578e+08                -6.04943e+07                           -513681    
         24.5591              -2.46702e+08                -5.66464e+07                           -551271    
         24.9444              -2.41868e+08                -5.48325e+07                           -439299    
         25.3326              -2.38324e+08                -5.54571e+07                           -602992    
         25.7238              -2.33887e+08                -5.40781e+07                           -285478    
         26.1181              -2.30404e+08                -5.43511e+07                           -346578    
         26.5153              -2.25406e+08                -5.13319e+07                           -267373    
         26.9155              -2.22322e+08                -5.19088e+07                           -558050    
         27.3187              -2.17673e+08                -4.91591e+07                           -465025    
          27.725              -2.14678e+08                -4.95647e+07                          -530339     
         28.1342              -2.10061e+08                -4.66006e+07                           -265132    
         28.5464              -2.07298e+08                -4.72331e+07                           -442367    
         28.9616              -2.03119e+08                -4.49212e+07                           -361727    
         29.3798              -2.00094e+08                -4.47985e+07                           -288292    
          29.801              -1.95954e+08                -4.23139e+07                          -253005     
         30.2252                -1.931e+08                -4.22608e+07                           -228215    
         30.6524              -1.90587e+08                -4.27507e+07                           -367891    
         31.0826              -1.87637e+08                -4.22304e+07                           -207467    
         31.5158              -1.84665e+08                -4.15386e+07                           -203360    
          31.952               -1.8035e+08                -3.80414e+07                          -336801     
         32.3912               -1.7831e+08                -3.89863e+07                           -211205    
         32.8334              -1.75138e+08                -3.75628e+07                           -232289    
         33.2786              -1.72149e+08                -3.64038e+07                           -214347    
         33.7268              -1.69185e+08                -3.51933e+07                           -323996    
          34.178              -1.66437e+08                -3.43172e+07                          -376648     
         34.6322              -1.64798e+08                 -3.5561e+07                           -220551    
         35.0894              -1.61308e+08                -3.30042e+07                           -362453    
         35.5495              -1.58873e+08                -3.24633e+07                           -267142    
         36.0127              -1.57537e+08                -3.40292e+07                           -365537    
         36.4789              -1.54159e+08                -3.14232e+07                           -165158    
         36.9481              -1.51856e+08                -3.08838e+07                           -267239    
         37.4202              -1.50531e+08                -3.22167e+07                           -178943    
         37.8954              -1.47336e+08                -2.97285e+07                           -292850    
         38.3736              -1.45117e+08                -2.91142e+07                           -154311    
         38.8548              -1.43895e+08                -3.04171e+07                           -193851    
         39.3389              -1.40779e+08                -2.78561e+07                           -321407    
         39.8261              -1.38678e+08                -2.72509e+07                           -268071    
         40.3162              -1.37479e+08                -2.83809e+07                           -287067    
         40.8094              -1.34683e+08                 -2.6246e+07                           -241180    
         41.3056              -1.32826e+08                -2.59212e+07                           -295597    
         41.8047              -1.31128e+08                -2.58496e+07                           -290272    
         42.3069              -1.29431e+08                -2.57145e+07                           -231298    
          42.812              -1.27851e+08                -2.57534e+07                          -260740     
         43.3202              -1.25413e+08                -2.40113e+07                               0
         43.8313              -1.24629e+08                -2.55209e+07                               0
         44.3455              -1.22841e+08                -2.49619e+07                               0
         44.8626              -1.21026e+08                -2.42935e+07                               0
         45.3827              -1.18908e+08                -2.29626e+07                               0
         45.9059              -1.17019e+08                -2.20351e+07                               0
          46.432              -1.15937e+08                -2.26696e+07                               0
         46.9611              -1.14123e+08                -2.17898e+07                               0
         47.4933              -1.12994e+08                -2.22288e+07                               0
         48.0284              -1.10994e+08                -2.08747e+07                               0
         48.5665              -1.10052e+08                -2.15913e+07                               0
