# z[m]        Wz_trx/Z_0/L[1/(m^2*s]        Wz_try/Z_0/L[1/(m^2*s]           Wz_l/Z_0/L[1/(ms)]
 0.000106884          -6.79233e+09           -9.95614e+09           3.01394e+08         
  0.00117573           -7.1263e+09           -1.08163e+10           3.05072e+08         
  0.00438226          -8.14114e+09           -1.34454e+10           3.12608e+08         
  0.00972648          -9.81619e+09           -1.77618e+10           3.13672e+08         
   0.0172084          -1.19556e+10           -2.30786e+10           2.95317e+08         
    0.026828          -1.41408e+10           -2.81935e+10           2.53487e+08         
   0.0385853          -1.59455e+10           -3.23159e+10           1.99011e+08         
   0.0524802          -1.71703e+10           -3.53809e+10            1.4678e+08         
   0.0685129          -1.78235e+10           -3.75424e+10           1.04498e+08         
   0.0866833          -1.79905e+10           -3.89056e+10           7.27649e+07         
    0.106991           -1.7764e+10           -3.95453e+10           4.94397e+07         
    0.129437          -1.72299e+10           -3.95424e+10           3.23306e+07         
     0.15402          -1.64705e+10           -3.89937e+10           1.98961e+07         
    0.180742          -1.55658e+10           -3.80104e+10           1.11086e+07         
      0.2096          -1.45911e+10           -3.67095e+10           5.17855e+06         
    0.240597          -1.36108e+10           -3.52008e+10           1.37041e+06         
    0.273731          -1.26714e+10           -3.35717e+10          -1.04366e+06         
    0.309003          -1.17962e+10           -3.18749e+10          -2.70395e+06         
    0.346412          -1.09877e+10            -3.0131e+10          -4.02195e+06         
     0.38596          -1.02377e+10            -2.8345e+10           -5.1023e+06         
    0.427644          -9.54011e+09           -2.65294e+10          -5.83767e+06         
    0.471467          -8.89741e+09           -2.47144e+10          -6.14685e+06         
    0.517427          -8.31475e+09           -2.29348e+10          -6.15291e+06         
    0.565525          -7.78952e+09           -2.12083e+10          -6.10707e+06         
    0.615761           -7.3101e+09           -1.95321e+10          -6.14261e+06         
    0.668134          -6.86636e+09           -1.79037e+10          -6.19074e+06         
    0.722645          -6.45714e+09           -1.63347e+10          -6.19016e+06         
    0.779294          -6.08287e+09           -1.48361e+10           -6.2567e+06         
    0.838081          -5.73663e+09           -1.34005e+10          -6.51272e+06         
    0.899005           -5.4105e+09           -1.20164e+10          -6.88338e+06         
    0.962067          -5.10457e+09           -1.06878e+10          -7.25525e+06         
     1.02727          -4.81998e+09           -9.42143e+09          -7.66445e+06         
      1.0946          -4.55183e+09           -8.21341e+09          -8.11594e+06         
     1.16408          -4.29803e+09           -7.06724e+09          -8.48354e+06         
     1.23569          -4.06149e+09           -5.99827e+09          -8.74415e+06         
     1.30944          -3.84019e+09           -5.01254e+09          -8.95068e+06         
     1.38533          -3.63159e+09           -4.11472e+09          -9.03883e+06         
     1.46335          -3.43795e+09           -3.31811e+09          -9.00281e+06         
     1.54352          -3.25744e+09           -2.62561e+09          -8.90982e+06         
     1.62582          -3.08806e+09           -2.03709e+09          -8.71945e+06         
     1.71026          -2.93137e+09           -1.55689e+09          -8.45682e+06         
     1.79683          -2.78476e+09           -1.17791e+09          -8.16426e+06         
     1.88555          -2.64787e+09            -8.9502e+08          -7.80544e+06         
      1.9764          -2.52087e+09           -7.01884e+08          -7.43076e+06         
     2.06939          -2.40142e+09            -5.8519e+08          -7.02917e+06         
     2.16452          -2.29057e+09           -5.37171e+08          -6.60401e+06         
     2.26178          -2.18641e+09           -5.43186e+08          -6.18277e+06         
     2.36118          -2.08911e+09           -5.92385e+08          -5.74138e+06         
     2.46272          -1.99796e+09           -6.72272e+08          -5.31712e+06         
      2.5664          -1.91223e+09           -7.70685e+08          -4.88586e+06         
     2.67222            -1.832e+09           -8.78047e+08          -4.47698e+06         
     2.78017          -1.75618e+09           -9.83493e+08          -4.07448e+06         
     2.89026          -1.68512e+09           -1.08063e+09          -3.69811e+06         
     3.00249          -1.61773e+09           -1.16168e+09          -3.33709e+06         
     3.11686           -1.5544e+09           -1.22364e+09          -3.00575e+06         
     3.23336          -1.49418e+09           -1.26254e+09          -2.69385e+06         
       3.352          -1.43737e+09           -1.27854e+09          -2.41432e+06         
     3.47278          -1.38329e+09           -1.27139e+09          -2.15471e+06         
      3.5957          -1.33201e+09           -1.24355e+09           -1.9282e+06         
     3.72075          -1.28324e+09           -1.19779e+09          -1.72067e+06         
     3.84795           -1.2367e+09           -1.13758e+09           -1.5434e+06         
     3.97728           -1.1925e+09           -1.06754e+09          -1.38529e+06         
     4.10874          -1.15014e+09           -9.91048e+08          -1.25023e+06         
     4.24235          -1.10987e+09           -9.12899e+08          -1.13599e+06         
     4.37809          -1.07129e+09           -8.35971e+08          -1.03619e+06         
     4.51597          -1.03441e+09           -7.63466e+08               -956118         
     4.65599          -9.99232e+08           -6.97772e+08               -886852         
     4.79815          -9.65435e+08           -6.39833e+08               -829712         
     4.94244          -9.33184e+08           -5.90835e+08               -784499         
     5.08887          -9.02321e+08           -5.50592e+08               -744561         
     5.23744          -8.72677e+08           -5.18324e+08               -712467         
     5.38815          -8.44377e+08           -4.93402e+08               -686550         
     5.54099          -8.17277e+08           -4.74356e+08               -662308         
     5.69598          -7.91246e+08           -4.59613e+08               -641644         
      5.8531          -7.66363e+08           -4.48032e+08               -624109         
     6.01235          -7.42559e+08           -4.38284e+08               -606319         
     6.17375          -7.19696e+08           -4.29105e+08               -588839         
     6.33728          -6.97786e+08           -4.19798e+08               -572906         
     6.50295          -6.76838e+08           -4.09935e+08               -556841         
     6.67076          -6.56754e+08           -3.99128e+08               -539543         
     6.84071          -6.37461e+08           -3.87268e+08               -522144         
     7.01279          -6.18963e+08           -3.74588e+08               -505335         
     7.18701           -6.0125e+08           -3.61409e+08               -488336         
     7.36337          -5.84261e+08              -3.48e+08               -470582         
     7.54187          -5.67931e+08           -3.34638e+08               -452611         
      7.7225          -5.52236e+08            -3.2164e+08               -435175         
     7.90528          -5.37167e+08           -3.09289e+08               -418392         
     8.09019          -5.22702e+08           -2.97757e+08               -401940         
     8.27723          -5.08801e+08           -2.87091e+08               -385645         
     8.46642          -4.95421e+08           -2.77264e+08               -369683         
     8.65774          -4.82536e+08           -2.68209e+08               -354370         
      8.8512          -4.70125e+08            -2.5984e+08               -339905         
      9.0468          -4.58172e+08           -2.52054e+08               -326299         
     9.24454          -4.46659e+08           -2.44737e+08               -313451         
     9.44441          -4.35564e+08           -2.37783e+08               -301254         
     9.64642          -4.24865e+08           -2.31099e+08               -289643         
     9.85057           -4.1454e+08           -2.24623e+08               -278598         
     10.0569          -4.04571e+08           -2.18318e+08               -268117         
     10.2653          -3.94942e+08           -2.12169e+08               -258195         
     10.4758          -3.85636e+08            -2.0618e+08               -248815         
     10.6885           -3.7664e+08           -2.00363e+08               -239946         
     10.9034          -3.67941e+08           -1.94734e+08               -231550         
     11.1204          -3.59527e+08           -1.89304e+08               -223587         
     11.3395          -3.51384e+08           -1.84081e+08               -216017         
     11.5607          -3.43502e+08           -1.79066e+08               -208808         
     11.7841           -3.3587e+08           -1.74255e+08               -201930         
     12.0096          -3.28476e+08           -1.69638e+08               -195357         
     12.2373          -3.21311e+08           -1.65202e+08               -189071         
     12.4671          -3.14366e+08           -1.60933e+08               -183054         
      12.699          -3.07632e+08           -1.56817e+08               -177293         
     12.9331          -3.01099e+08           -1.52844e+08               -171776         
     13.1693           -2.9476e+08           -1.49001e+08               -166488         
     13.4077          -2.88606e+08           -1.45283e+08               -161415         
     13.6482          -2.82631e+08           -1.41681e+08               -156536         
     13.8908          -2.76828e+08           -1.38193e+08               -151828         
     14.1356          -2.71189e+08           -1.34815e+08               -147272         
     14.3825          -2.65712e+08           -1.31548e+08               -142856         
     14.6315          -2.60389e+08           -1.28389e+08               -138590         
     14.8827          -2.55217e+08           -1.25336e+08               -134498         
      15.136          -2.50188e+08           -1.22383e+08               -130610         
     15.3915          -2.45296e+08           -1.19522e+08               -126929         
     15.6491          -2.40534e+08           -1.16746e+08               -123413         
     15.9088          -2.35896e+08            -1.1405e+08               -119989         
     16.1706          -2.31383e+08           -1.11437e+08               -116610         
     16.4347          -2.26992e+08            -1.0891e+08               -113312         
     16.7008          -2.22719e+08           -1.06466e+08               -110186         
     16.9691          -2.18557e+08           -1.04093e+08               -107266         
     17.2395          -2.14497e+08            -1.0178e+08               -104459         
      17.512           -2.1054e+08           -9.95332e+07               -101649         
     17.7867          -2.06687e+08           -9.73604e+07              -98878.4         
     18.0636          -2.02935e+08           -9.52573e+07              -96292.3         
     18.3425          -1.99273e+08           -9.32073e+07              -93878.7         
     18.6236          -1.95699e+08           -9.12084e+07              -91460.6         
     18.9069          -1.92217e+08           -8.92748e+07              -89035.4         
     19.1923          -1.88823e+08           -8.74031e+07              -86793.2         
     19.4798          -1.85507e+08           -8.55737e+07              -84690.1         
     19.7694           -1.8227e+08           -8.37919e+07              -82526.2         
     20.0612          -1.79117e+08           -8.20719e+07              -80430.1         
     20.3552          -1.76036e+08           -8.03953e+07              -78533.5         
     20.6512          -1.73025e+08           -7.87552e+07              -76605.7         
     20.9494          -1.70089e+08           -7.71715e+07              -74683.8         
     21.2498          -1.67222e+08            -7.5629e+07              -72963.7         
     21.5523          -1.64417e+08           -7.41182e+07              -71206.4         
     21.8569          -1.61682e+08           -7.26602e+07              -69469.2         
     22.1637          -1.59008e+08           -7.12352e+07              -67913.6         
     22.4726          -1.56392e+08           -6.98433e+07              -66272.9         
     22.7836          -1.53841e+08           -6.84994e+07              -64743.8         
     23.0968          -1.51342e+08           -6.71781e+07              -63294.3         
     23.4121          -1.48902e+08           -6.58991e+07              -61781.5         
     23.7295          -1.46516e+08           -6.46515e+07                -60450         
     24.0491          -1.44181e+08           -6.34311e+07              -59032.7         
     24.3708          -1.41901e+08           -6.22508e+07                -57745         
     24.6947          -1.39666e+08           -6.10891e+07              -56452.9         
     25.0207          -1.37485e+08           -5.99682e+07              -55196.9         
     25.3488          -1.35346e+08           -5.88643e+07              -54012.5         
     25.6791          -1.33257e+08           -5.77977e+07              -52802.6         
     26.0115          -1.31209e+08           -5.67486e+07              -51700.6         
      26.346          -1.29208e+08           -5.57332e+07              -50549.5         
     26.6827          -1.27246e+08            -5.4735e+07              -49511.4         
     27.0216          -1.25328e+08           -5.37686e+07              -48425.7         
     27.3625          -1.23447e+08           -5.28175e+07              -47437.3         
     27.7056          -1.21609e+08           -5.18977e+07              -46423.3         
     28.0508          -1.19804e+08           -5.09908e+07              -45469.3         
     28.3982          -1.18041e+08           -5.01146e+07              -44535.1         
     28.7477           -1.1631e+08           -4.92505e+07              -43602.1         
     29.0994          -1.14617e+08           -4.84133e+07              -42747.7         
     29.4532          -1.12957e+08            -4.7592e+07              -41840.5         
     29.8091          -1.11329e+08           -4.67893e+07              -41038.8         
     30.1672          -1.09737e+08           -4.60095e+07              -40193.5         
     30.5274          -1.08172e+08           -4.52407e+07              -39396.4         
     30.8897          -1.06642e+08           -4.44959e+07              -38642.3         
     31.2542           -1.0514e+08           -4.37649e+07              -37849.6         
     31.6208          -1.03667e+08           -4.30484e+07              -37137.2         
     31.9895          -1.02225e+08           -4.23535e+07              -36419.7         
     32.3604          -1.00808e+08           -4.16692e+07                -35693         
     32.7335          -9.94191e+07           -4.10003e+07              -35036.6         
     33.1086          -9.80586e+07           -4.03504e+07              -34369.3         
     33.4859          -9.67221e+07           -3.97107e+07              -33696.9         
     33.8654          -9.54106e+07           -3.90843e+07                -33083         
     34.2469          -9.41258e+07           -3.84757e+07              -32474.7         
     34.6307          -9.28641e+07           -3.78782e+07              -31850.7         
     35.0165          -9.16247e+07           -3.72909e+07              -31264.9         
     35.4045          -9.04096e+07           -3.67188e+07              -30711.1         
     35.7946          -8.92177e+07           -3.61605e+07              -30147.1         
     36.1869          -8.80465e+07           -3.56115e+07              -29585.5         
     36.5813          -8.68961e+07           -3.50726e+07              -29057.2         
     36.9778          -8.57676e+07           -3.45471e+07              -28552.1         
     37.3765          -8.46602e+07            -3.4034e+07                -28045         
     37.7773          -8.35722e+07           -3.35303e+07              -27538.1         
     38.1803          -8.25029e+07           -3.30353e+07              -27049.4         
     38.5854          -8.14528e+07           -3.25505e+07              -26584.3         
     38.9926          -8.04219e+07           -3.20771e+07              -26132.2         
      39.402          -7.94098e+07           -3.16142e+07              -25683.3         
     39.8135          -7.84152e+07           -3.11602e+07              -25238.2         
     40.2271          -7.74375e+07           -3.07143e+07              -24803.2         
     40.6429          -7.64766e+07           -3.02766e+07              -24382.7         
     41.0608          -7.55324e+07           -2.98478e+07              -23976.2         
     41.4809          -7.46047e+07            -2.9428e+07              -23580.4         
     41.9031          -7.36933e+07           -2.90171e+07              -23192.6         
     42.3274          -7.27976e+07           -2.86145e+07              -22811.8
     42.7539           -7.0387e+07             -2.66777e+07             -21375.4  
     43.1825          -6.95213e+07             -2.62904e+07             -21003.1  
     43.6132          -6.86701e+07             -2.59104e+07             -20638.3  
     44.0461          -6.78331e+07             -2.55374e+07               -20282  
     44.4811          -6.70101e+07             -2.51715e+07             -19934.7  
     44.9183          -6.62007e+07             -2.48125e+07             -19596.2  
     45.3576          -6.54047e+07             -2.44604e+07             -19265.9  
      45.799          -6.46219e+07             -2.41149e+07             -18943.3  
     46.2426           -6.3852e+07              -2.3776e+07               -18628  
     46.6883          -6.30947e+07             -2.34435e+07             -18319.4  
     47.1361          -6.23497e+07             -2.31172e+07             -18017.4  
     47.5861          -6.16168e+07              -2.2797e+07             -17721.7  
     48.0382          -6.08957e+07             -2.24828e+07             -17432.3  
     48.4925          -6.01863e+07             -2.21744e+07             -17149.2  
     48.9489          -5.94882e+07             -2.18717e+07             -16872.6  
     49.4074          -5.88012e+07             -2.15744e+07             -16602.5  
     49.8681          -5.81251e+07             -2.12826e+07               -16339  
     50.3309          -5.74596e+07             -2.09958e+07             -16081.6  
     50.7959          -5.68046e+07             -2.07141e+07             -15829.7  
     51.2629          -5.61596e+07             -2.04373e+07             -15582.1  
     51.7322          -5.55247e+07             -2.01653e+07             -15337.3  
     52.2035          -5.48996e+07             -1.98981e+07             -15094.3  
      52.677          -5.42843e+07             -1.96358e+07             -14853.6  
     53.1527          -5.36787e+07             -1.93785e+07             -14617.4  
     53.6304          -5.30824e+07             -1.91261e+07             -14388.8  
